Position(bp)	Rate(cM/Mb)	Map(cM)	Filtered
   194441	0.388685381886	0.0	0
   196912	0.38811014823	0.000960440792489	0
   196944	0.3885511607	0.000972862004584	0
   197557	0.388206020506	0.00121104325251	0
   199256	0.387477391207	0.00187060424593	0
   199492	0.385061409849	0.00196204914035	0
   199891	0.374055272549	0.00211568829774	0
   200948	0.363279228712	0.0025110655645	0
   202547	0.357641938875	0.00309194993323	0
   202856	0.346923418404	0.00320245998848	0
   203235	0.338774274933	0.0033339449803	0
   203788	0.329167872865	0.00352128707764	0
   204062	0.316225115587	0.00361147796269	0
   204228	0.300233619929	0.00366397186876	0
   204968	0.289610971734	0.00388614436402	0
   204986	0.278125473053	0.0038913578984	0
   205113	0.268442373164	0.00392667916237	0
   205198	0.258279911894	0.00394949676409	0
   206421	0.248481765274	0.00426537290459	0
   206767	0.240428494079	0.00435134924438	0
   211015	0.215099038725	0.00537268810666	0
   211482	0.196653212798	0.0054731392427	0
   212015	0.186394879252	0.00557795640219	0
   214544	0.186299006976	0.00604934887925	0
   214716	0.186145611334	0.00608139131138	0
   216056	0.186452402618	0.00633082796453	0
   216290	0.186279832521	0.00637445751995	0
   217814	0.186030564603	0.00665834683424	0
   218141	0.186107262424	0.00671917971089	0
   218489	0.186605798259	0.00678394526831	0
   218613	0.186490751528	0.00680708308343	0
   219089	0.186394879252	0.00689585314134	0
   221584	0.185608726588	0.00736090846095	0
   223272	0.185532028767	0.0076742171419	0
   224393	0.183384489782	0.00788219862284	0
   224676	0.180930159513	0.00793409620336	0
   230368	0.14929230839	0.00896395044121	0
   232098	0.116446466588	0.00922222651821	0
   233067	0.0946067620851	0.00933506243488	0
   233212	0.0732655934186	0.00934877984015	0
   236091	0.05811777379	0.00955971226975	0
   236811	0.0473800788635	0.00960155668339	0
   237087	0.0381955148102	0.00961463366186	0
   238058	0.0320980380483	0.00965172089316	0
   239561	0.0314077576602	0.00969996573995	0
   241829	0.0312927109288	0.00977119692367	0
   243268	0.0312927109288	0.00981622813177	0
   244141	0.0312927109288	0.00984354597813	0
   244167	0.0363355926533	0.00984436089248	0
   244171	0.0380612936236	0.00984450470089	0
   244197	0.0465172283783	0.00984549410278	0
   244552	0.0322322592349	0.00986200906107	0
   247102	8.66478292099	0.00994420036339	0
   247972	8.53299689022	0.0174825626551	0
   248016	7.77476223276	0.017858013828	0
   248077	0.6820737213	0.0183322748036	0
   249097	0.545609123456	0.0190279892323	0
   249131	0.447186644781	0.0190465405177	0
   252231	0.443581847198	0.0204328191166	0
   252283	0.442105414146	0.0204558859862	0
   252649	0.440034572982	0.020617695379	0
   252735	0.437177579153	0.0206555380838	0
   252818	0.435988762929	0.0206918238229	0
   252851	0.432786628906	0.0207062123341	0
   252941	0.430504868734	0.0207451633224	0
   252942	0.42590299948	0.0207455928302	0
   253841	0.425615382652	0.0211284798568	0
   254010	0.424905927808	0.0212004089907	0
   255014	0.423947205047	0.0216270137753	0
   257030	0.423947205047	0.0224816921076	0
   257230	0.423947205047	0.0225664815486	0
   257704	0.423947205047	0.0227674317568	0
   259229	0.423640413763	0.0234139522033	0
   260610	0.423851332771	0.0239989993462	0
   261210	0.424119775144	0.0242533101459	0
   267250	0.769931075145	0.0268149943547	0
   268020	1.69734195106	0.0274078416661	0
   269147	1.95266899685	0.0293207447603	0
   269856	1.97078885704	0.0307051883637	0
   270346	1.97280217484	0.0316708733697	0
   270514	1.97268712811	0.0320023038283	0
   270548	1.97485384155	0.0320693760727	0
   270715	1.97797927775	0.0323991767026	0
   272010	1.95903491599	0.0349606595796	0
   272199	1.89529902681	0.03533091831	0
   273153	1.4844863236	0.0371390330064	0
   274780	1.4479973353	0.0395542914879	0
   276012	1.43614752197	0.0413382252788	0
   278039	1.43662688335	0.0442492949061	0
   278126	1.43528467149	0.044374281675	0
   280000	1.43465191447	0.0470640052261	0
   280817	1.434421821	0.0482361166647	0
   282466	18.9453013116	0.0506014774614	0
   283928	18.9453013116	0.0782995091677	0
   284039	18.9453013116	0.0804024368655	0
   284257	18.9453013116	0.0845325128966	0
   285038	18.9453013116	0.0993287938154	0
   285892	18.9318216696	0.115508080253	0
   285920	18.9318216696	0.11603817149	0
   285936	18.8782674161	0.116341079947	0
   286134	0.828719954868	0.12007897701	0
   286621	0.814319938993	0.120482564779	0
   287070	0.813917275434	0.120848192878	0
   288505	0.813322867322	0.122016164552	0
   290158	0.813303692866	0.123360587232	0
   290233	0.813533786329	0.123421585009	0
   290494	0.813399565142	0.123633917174	0
   290816	0.812901029307	0.123895832563	0
   293188	0.812901029307	0.125824033037	0
   295343	0.812670935844	0.127575836194	0
   295670	0.812402493471	0.127841578803	0
   295876	0.812939378217	0.128008933449	0
   296682	0.812901029307	0.128664162933	0
   297057	0.811846434269	0.128969000339	0
   297279	0.80806906659	0.129149230631	0
   298316	0.807071994918	0.129987198426	0
   298758	12.4956856795	0.130343923826	0
   300364	12.4956856795	0.15041199495	0
   305619	8.55890157923	0.216076822813	0
   305961	5.66459426069	0.219003968303	0
   307025	4.64125358528	0.225031095906	0
   307036	3.4138775318	0.225082149811	0
   307244	2.12890141483	0.225792235494	0
   308180	2.131183175	0.227784888982	0
   309127	3.17036195043	0.229803119276	0
   309508	13.1136783714	0.231011025588	0
   316299	0.107511170452	0.320066015907	0
   323649	0.0785385686057	0.320856223968	0
   324699	0.0621444093875	0.320938689465	0
   326718	0.0572740977601	0.321064157513	0
   327334	0.0573316211258	0.321099438511	0
   329896	0.0573316211258	0.321246322508	0
   330630	0.0573316211258	0.321288404684	0
   331326	0.0573316211258	0.321328306726	0
   333347	1.05706854215	0.321444174124	0
   334703	27.1905471522	0.322877558607	0
   335017	27.4247631228	0.331415391295	0
   335795	27.4247631228	0.352751856467	0
   335885	27.4247631228	0.355220086299	0
   336138	27.4247631228	0.362158550832	0
   336192	27.4247631228	0.363639487964	0
   336332	27.4247631228	0.367478954034	0
   336677	27.4247631228	0.376940496928	0
   336744	25.6483457184	0.378777956211	0
   337514	1.19017761033	0.398527182989	0
   338901	1.18866282837	0.400177959776	0
   339943	1.18896961965	0.401416547133	0
   340219	1.18962155113	0.401744702595	0
   341301	29.9983776777	0.403031872269	0
   342860	29.9983776777	0.449799342628	0
   343420	29.9983776777	0.466598433744	0
   345595	0.817004362725	0.531844905672	0
   346095	0.815259487299	0.532253407854	0
   346381	0.810485047948	0.532486573064	0
   348384	0.83056070257	0.534109974481	0
   350917	4.9506525948	0.536213784204	0
   353221	4.30610328238	0.547620088549	0
   353376	3.30118925844	0.548287534078	0
   353440	1.82782411887	0.548498809731	0
   353757	0.784005125281	0.549078231089	0
   356090	0.744237305142	0.550907314969	0
   357637	0.724871105364	0.552058648968	0
   358726	0.702130201466	0.552848034446	0
   359359	0.697336587659	0.553292482978	0
   360829	0.688132849151	0.554317566612	0
   362565	0.687001556293	0.555512165851	0
   362668	0.685946961255	0.555582927261	0
   364390	3.48041289144	0.556764127391	0
   364542	6.47032404374	0.557293150611	0
   365097	6.54038750314	0.560884180935	0
   365161	6.72706999922	0.561302765044	0
   365609	30.2092199874	0.564316492788	0
   365636	43.2910879376	0.565132141516	0
   366710	43.2910879376	0.611626768964	0
   367139	43.2910879376	0.630198645843	0
   368778	2.88021409395	0.70115273951	0
   370831	2.85674456076	0.70706581937	0
   371047	2.67617871589	0.707682876349	0
   371265	2.13785588542	0.708266282158	0
   371924	2.13676294148	0.709675129091	0
   372225	2.02445815722	0.710318295925	0
   372457	1.70167537794	0.710787970371	0
   372669	1.1482239023	0.711148724324	0
   373404	0.693003160778	0.711992668796	0
   377795	0.712350186101	0.715035647171	0
   378188	0.738830108768	0.71531559997	0
   379097	0.756566479853	0.715987196769	0
   379598	0.754457289778	0.7163662374	0
   381072	0.640350106728	0.717478305949	0
   381147	0.504537440362	0.717526332207	0
   382912	0.467933405335	0.718416841844	0
   383179	0.434358934235	0.718541778759	0
   383510	0.39284623867	0.718685552659	0
   383538	0.35677908839	0.718696553044	0
   383855	0.318947888229	0.718809651651	0
   384067	0.290090333114	0.71887726845	0
   388357	0.290090333114	0.720121755787	0
   391049	0.290071158659	0.720902679578	0
   391450	0.290071158659	0.721018997575	0
   392953	0.290109507569	0.721454974834	0
   394005	0.290109507569	0.721760168885	0
   396308	0.291068230331	0.722428291273	0
   396915	0.291624289532	0.722604970456	0
   400040	0.292698059025	0.723516295881	0
   400109	0.294538806727	0.723536492335	0
   403545	0.828547384771	0.724548527751	0
   403980	1.111734914	0.724908946151	0
   404317	1.23707832782	0.725283599667	0
   405360	0.272334787575	0.726573873686	0
   406043	0.0898131482786	0.726759877406	0
   406473	0.0610898143501	0.726798496676	0
   406483	0.0257512933685	0.726799108342	0
   408352	0.0212644708456	0.726847238142	0
   408555	0.0177363710841	0.726851554312	0
   410462	0.00964475097868	0.726885378051	0
   413324	0.00916538959803	0.726912979679	0
   415357	0.00916538959803	0.726931613414	0
   418179	0.00916538959803	0.726957477837	0
   419906	0.00916538959803	0.72697330635	0
   424291	0.00901199395622	0.727013497925	0
   428028	0.0700442849406	0.727047175939	0
   428385	0.651854779863	0.727072181346	0
   428489	14.5078530109	0.72713997455	0
   429659	0.595673626051	0.744114161038	0
   433135	0.596114638521	0.746184724173	0
   433867	0.595347660312	0.746621079168	0
   435904	0.595347660312	0.747833802103	0
   435941	0.595711974962	0.747855829717	0
   436461	0.595654451596	0.748165600711	0
   437059	0.595539404865	0.748521802648	0
   439219	0.594887473387	0.749808166996	0
   441140	0.594829950021	0.750950945353	0
   443587	0.584283999647	0.752406495506	0
   443731	0.571954824937	0.752490631098	0
   444628	0.537958515821	0.753003674327	0
   445751	0.44072485337	0.75360780197	0
   452282	0.0292793931301	0.756486177234	0
   456234	0.0141890968672	0.756601889319	0
   460303	0.00786152664266	0.756659623604	0
   480016	0.00786152664266	0.756814599221	0
   484204	0.0237763244802	0.75684752176	0
   486874	0.276399772083	0.756911004547	0
   493085	0.278087124143	0.758627724202	0
   495103	0.280560628867	0.759188904901	0
   495825	0.277876205135	0.759391469598	0
   499120	0.26387885282	0.760307070927	0
   500278	0.239546469138	0.760612642715	0
   502013	0.205550160023	0.761028256702	0
   502217	0.172282480206	0.761070187401	0
   503993	0.127951139723	0.761376161853	0
   508177	0.113455251572	0.761911508808	0
   511805	0.112669098908	0.76232312492	0
   526326	0.110348989826	0.763959192982	0
   529967	0.11032981537	0.764360974517	0
   534242	0.201657745612	0.764832633519	0
   534916	0.392462749566	0.764968551645	0
   538940	0.448413809915	0.766547821136	0
   539744	0.41911524233	0.766908344995	0
   540604	0.414398326344	0.767268784487	0
   540719	0.410064899463	0.767316440678	0
   542275	0.410064899463	0.767954501355	0
   542844	0.409969027187	0.768187829548	0
   545087	0.409969027187	0.769107388485	0
   545345	0.409969027187	0.769213160532	0
   547716	0.409969027187	0.770185198035	0
   548205	0.410141597284	0.770385672717	0
   549051	0.410141597284	0.770732651741	0
   549080	0.410141597284	0.770744545656	0
   549119	0.410141597284	0.770760542904	0
   549453	0.410141597284	0.770897529047	0
   549959	0.410256644016	0.771105061845	0
   551405	0.410256644016	0.771698292646	0
   551644	0.410256644016	0.77179634314	0
   553866	0.411061971135	0.772707933173	0
   554018	0.412423357456	0.772770415053	0
   554047	0.413075288934	0.772782376078	0
   554166	0.413631348135	0.772831531711	0
   554798	0.414973560001	0.773092946647	0
   557342	0.421607921509	0.774148638463	0
   557540	0.44755095943	0.774232118289	0
   557584	0.478901193725	0.774251810454	0
   557617	0.512514013736	0.77426761404	0
   558165	0.575923937168	0.774548471873	0
   558884	0.839572696526	0.774962559573	0
   563257	1.66512886628	0.778634011397	0
   563649	3.28659749801	0.77928674245	0
   565317	3.28765209305	0.784768786309	0
   565840	2.10625638321	0.786488228737	0
   566300	1.99232177026	0.78745710629	0
   566936	1.92546044489	0.78872422332	0
   567391	1.74244026975	0.789600308014	0
   569251	1.7538107217	0.792841247299	0
   572105	3.28107525491	0.797846621872	0
   573554	3.72281635441	0.802600901201	0
   577534	0.00596325557529	0.817417710291	0
   584243	0.00596325557529	0.817457717792	0
   587425	0.00596325557529	0.817476692833	0
   589246	0.00596325557529	0.817487551327	0
   589392	0.00598243003051	0.817488421847	0
   605856	0.0094338319712	0.817586917189	0
   606770	0.0153012152704	0.817595539941	0
   607175	0.0228942995399	0.817601737125	0
   610277	0.331468807492	0.817672755472	0
   612148	0.265355285873	0.818292932135	0
   612182	0.209806889083	0.818301955633	0
   612355	0.176232417982	0.81833825096	0
   612967	0.188542418237	0.818446105353	0
   613208	0.198302215947	0.818491544977	0
   614864	0.200603150574	0.818819932449	0
   616865	0.206911546344	0.819221340082	0
   617228	0.212050300344	0.819296448341	0
   617519	0.208867340777	0.819358155573	0
   618172	0.204840705179	0.81949454539	0
   619671	0.506493234795	0.819801601281	0
   619789	0.952586935628	0.819861368058	0
   620599	0.501968063362	0.820632963476	0
   620927	0.215367481099	0.820797608771	0
   621634	0.187219380827	0.82094987312	0
   621884	0.153798305368	0.820996677965	0
   623765	0.153376467353	0.821285972558	0
   625085	0.153529862995	0.821488429879	0
   626220	0.154450236845	0.821662687328	0
   628245	0.159665688667	0.821975447619	0
   630124	0.343913028934	0.822275460733	0
   636199	17.240481323	0.824364732384	0
   636433	20.4527011092	0.828399005167	0
   636784	20.4527011092	0.835577902029	0
   637622	1.14149366851	0.852717266862	0
   637933	0.829391060801	0.853072270396	0
   640369	0.842237945802	0.855092667404	0
   641191	0.830522353659	0.855784986036	0
   641548	0.802642695761	0.856081482555	0
   642044	0.721189609961	0.856479594099	0
   646923	0.72111291214	0.859998277286	0
   648715	0.72111291214	0.861290512851	0
   653968	0.72111291214	0.865078518519	0
   654043	0.72159227352	0.865132601987	0
   654091	0.721784018073	0.865167238723	0
   654109	0.722186681632	0.865180231334	0
   656845	0.013824782218	0.867156134018	0
   658618	0.00690280388136	0.867180644724	0
   659490	0.00642344250071	0.867186663586	0
   662407	0.00642344250071	0.867205400863	0
   671923	0.00642344250071	0.867266527109	0
   674499	0.00642344250071	0.867283072747	0
   678973	0.00642344250071	0.86731181142	0
   680254	0.00642344250071	0.867320041096	0
   680647	0.00642344250071	0.867322564455	0
   680866	0.00642344250071	0.86732397186	0
   683403	0.00642344250071	0.867340268229	0
   683761	0.00642344250071	0.867342567246	0
   684056	0.00644261695594	0.867344461682	0
   684697	0.00644261695594	0.86734859186	0
   688217	0.00705619952317	0.867371269488	0
   689116	0.017813068905	0.867377614316	0
   690462	1.30165789302	0.867401590054	0
   692221	1.30300010488	0.869691206001	0
   696437	1.30576122644	0.875184654826	0
   697761	1.30823473116	0.87691348315	0
   698126	1.30951941966	0.877390988444	0
   698626	1.31155191191	0.878045748153	0
   698807	1.31968188093	0.878283139414	0
   699852	1.34898044852	0.8796622065	0
   702250	1.30746775295	0.882897061731	0
   703175	1.28875348465	0.884106469402	0
   704864	1.28129462157	0.886283172734	0
   705404	1.27529301708	0.886975073363	0
   705535	1.26927223814	0.887142136557	0
   707025	1.25153586706	0.889033351425	0
   709401	2.29155831852	0.892007000722	0
   709680	3.86578109257	0.892646346087	0
   709861	3.87393023604	0.893346052637	0
   710139	3.80193015667	0.894423005089	0
   710558	2.91123836251	0.896016013077	0
   715420	2.83072482502	0.910170454034	0
   716765	2.81206808008	0.913977779882	0
   720197	9.30482623643	0.923628797073	0
   721570	9.3024869529	0.936404322422	0
   721931	9.01895428347	0.939762521171	0
   722709	7.05104159471	0.946779267335	0
   723116	2.01184136568	0.949649040938	0
   723429	0.243668977012	0.950278747304	0
   729570	0.243630628102	0.951775119873	0
   733639	0.243285487908	0.95276645263	0
   737927	0.243573104736	0.953809659959	0
   737969	0.24267190534	0.953819889531	0
   743813	0.242288416236	0.955238064836	0
   744185	0.242154195049	0.95532819628	0
   745884	0.241943276042	0.955739616813	0
   746992	0.241176297833	0.956007689119	0
   749776	0.238338478459	0.956679124853	0
   752059	0.234733680877	0.957223251791	0
   752535	0.231052185473	0.957334983259	0
   755659	0.227907574816	0.958056790287	0
   758446	0.227236468883	0.958691969043	0
   761525	0.226852979779	0.959391631492	0
   766479	0.234235145041	0.960515459735	0
   767750	0.237111313325	0.960813173831	0
   769188	0.238626095288	0.961154139746	0
   770007	0.239853260422	0.961349573464	0
   771034	0.240428494079	0.961595903855	0
   771986	0.240658587542	0.961824791245	0
   772490	0.240965378825	0.961946083096	0
   772701	0.241368042385	0.961996926082	0
   772982	0.241578961392	0.962064751882	0
   779671	0.241578961392	0.963680673344	0
   780395	0.241578961392	0.963855576972	0
   780827	0.241578961392	0.96395993778	0
   783512	0.241483089116	0.964608577003	0
   787679	0.140644629083	0.965614837074	0
   788007	0.0413784743777	0.965660968896	0
   788823	0.0122908257999	0.965694733194	0
   790762	0.0122524768894	0.965718565124	0
   791009	0.0122524768894	0.965721592771	0
   791462	0.0122524768894	0.965727141858	0
   793502	0.0122524768894	0.965752137678	0
   793588	0.0122524768894	0.965753192273	0
   796050	0.0122524768894	0.965783357526	0
   802379	0.0122716513446	0.965860902858	0
   804212	0.0307174772721	0.965883396411	0
   805712	0.59772529276	0.965929472627	0
   810882	0.59772529276	0.969019712199	0
   811373	0.597782816126	0.969313196411	0
   811853	0.597782816126	0.969600132546	0
   812188	0.597782816126	0.969800388639	0
   813524	0.597782816126	0.970599027708	0
   816017	0.597782816126	0.972089298965	0
   820268	0.598453922059	0.974630474177	0
   820754	0.59941264482	0.974921321901	0
   822622	0.599585214917	0.976041025718	0
   822822	0.59985365729	0.976160942761	0
   825110	0.607063252455	0.977533408083	0
   825777	21.4069562224	0.977938318889	0
   827713	21.4069562224	1.01938218583	0
   827955	21.4069562224	1.0245626692	0
   827993	21.4069562224	1.02537613395	0
   828916	21.0659960596	1.0451347543	0
   829539	0.605605993858	1.05825886933	0
   830670	0.608597208873	1.05894380963	0
   831809	0.67572697662	1.05963700262	0
   833668	0.823351107405	1.0608931787	0
   834745	0.93201274517	1.06177992823	0
   834802	0.935943508492	1.06183305297	0
   835065	0.969211188309	1.06207920696	0
   837059	0.97567297972	1.06401181372	0
   837582	0.979009334929	1.06452209008	0
   837772	0.982211468952	1.06470810147	0
   838424	0.982211468952	1.06534850335	0
   838542	0.98924849402	1.06546440526	0
   838672	1.07413380731	1.06559300641	0
   838722	1.03937051998	1.06564671406	0
   838760	1.02084799623	1.0656862096	0
   838842	0.945818352933	1.06576991952	0
   840034	0.786401932184	1.06689733531	0
   840268	0.724468441804	1.06708135255	0
   840302	0.657012708319	1.06710598406	0
   840319	0.587543657035	1.0671171551	0
   840363	0.522158764715	1.0671430061	0
   840477	0.480799464792	1.06720253128	0
   842627	3.57114641357	1.06823625108	0
   843461	3.56769501163	1.07121458662	0
   843927	3.39890228227	1.07287713268	0
   844057	2.82152108651	1.07331899075	0
   845077	1.50832017144	1.07619694226	0
   845789	0.989133447289	1.07727086514	0
   846070	0.699273207637	1.0775488123	0
   846842	0.402759432022	1.07808865183	0
   853760	0.396067547148	1.08087494177	0
   853887	0.390161814939	1.08092524212	0
   855318	0.3898358492	1.0814835639	0
   857789	0.388033450409	1.08244684827	0
   858424	0.386691238543	1.0826932496	0
   862505	0.386691238543	1.08427133603	0
   866794	0.38646114508	1.08592985355	0
   866920	0.385962609244	1.08597854899	0
   867824	0.385866736968	1.08632745888	0
